id,vel_x,vel_y,x,y,z
0,0,0,100,0,0
1,-0.17528936811464,3.0456351799132e-05,100,1,0
2,-0.34651621731802,0.00010039716861269,100,2,0
3,-0.51386622711942,0.00020744141042222,100,3,0
4,-0.67752051731568,0.00034351168828028,100,4,0
5,-0.83765316406342,0.00050209234212073,100,5,0
6,-0.9944317189878,0.00067746309932845,100,6,0
7,-1.1480174141773,0.00086474687456706,100,7,0
8,-1.2985653884721,0.0010598770116166,100,8,0
9,-1.4462249013633,0.0012595743984009,100,9,0
10,-1.5911395381175,0.0014613252523335,100,10,0
11,-1.7334474059648,0.0016633604405233,100,11,0
12,-1.8732813215711,0.0018646361812141,100,12,0
13,-2.0107689899701,0.0020648160735014,100,13,0
14,-2.1460331751398,0.002264254392439,100,14,0
15,-2.2791918623932,0.0024639805854142,100,15,0
16,-2.4103584127648,0.0026656849055337,100,16,0
17,-2.5396417095653,0.0028717051170389,100,17,0
18,-2.6671462972739,0.0030850142072809,100,18,0
19,-2.7929725129419,0.0033092090385863,100,19,0
20,-2.9172166102738,0.0035484998739092,100,20,0
21,-3.0399708765539,0.0038077007093354,100,21,0
22,-3.1613237425849,0.0040922203451136,100,22,0
23,-3.2813598858046,0.0044080541281868,100,23,0
24,-3.4001603267368,0.0047617762976904,100,24,0
25,-3.5178025189501,0.0051605328643268,100,25,0
26,-3.6343604326776,0.0056120349552005,100,26,0
27,-3.7499046322547,0.0061245525537706,100,27,0
28,-3.8645023475472,0.0067069085656322,100,28,0
29,-3.9782175395112,0.0073684731394739,100,29,0
30,-4.0911109600573,0.0081191581719972,100,30,0
31,-4.2032402063635,0.0089694119260135,100,31,0
32,-4.3146597698031,0.0099302136892749,100,32,0
33,-4.4254210796338,0.011013068402206,100,33,0
34,-4.5355725416136,0.012230001181041,100,34,0
35,-4.6451595716907,0.013593551663343,100,35,0
36,-4.7542246249216,0.015116768101807,100,36,0
37,-4.8628072197837,0.016813201131493,100,37,0
38,-4.9709439580215,0.018696897136074,100,38,0
39,-5.0786685401998,0.020782391136588,100,39,0
40,-5.1860117771016,0.023084699127234,100,40,0
41,-5.2930015971476,0.025619309781439,100,41,0
42,-5.3996630499765,0.028402175450482,100,42,0
43,-5.506018306361,0.031449702378206,100,43,0
44,-5.6120866546109,0.034778740052573,100,44,0
45,-5.7178844936304,0.038406569617006,100,45,0
46,-5.8234253227829,0.042350891262109,100,46,0
47,-5.9287197287516,0.04662981051954,100,47,0
48,-6.033775369541,0.051261823378957,100,48,0
49,-6.1385969558021,0.056265800149649,100,49,0
50,-6.2431862296535,0.061660967987712,100,50,0
51,-6.3475419411644,0.067466892011007,100,51,0
52,-6.4516598226989,0.073703454923718,100,52,0
53,-6.5555325612841,0.080390835073232,100,53,0
54,-6.6591497691974,0.087549482863058,100,54,0
55,-6.7624979529516,0.095200095446335,100,55,0
56,-6.8655604808904,0.10336358962537,100,56,0
57,-6.9683175495667,0.11206107288538,100,57,0
58,-7.0707461491197,0.12131381249013,100,58,0
59,-7.1728200278419,0.13114320257233,100,59,0
60,-7.2745096561569,0.14157072915032,100,60,0
61,-7.3757821902034,0.15261793300885,100,61,0
62,-7.4766014352514,0.16430637038237,100,62,0
63,-7.5769278091631,0.1766575713833,100,63,0
64,-7.676718306111,0.1896929961224,100,64,0
65,-7.7759264607985,0.20343398847143,100,65,0
66,-7.8745023133871,0.21790172742358,100,66,0
67,-7.9723923753696,0.2331171760128,100,67,0
68,-8.0695395966207,0.24910102775728,100,68,0
69,-8.1658833338446,0.26587365060062,100,69,0
70,-8.2613593206764,0.28345502832909,100,70,0
71,-8.3558996396457,0.30186469945143,100,71,0
72,-8.449432696251,0.32112169353592,100,72,0
73,-8.5418831953608,0.34124446500682,100,73,0
74,-8.6331721201931,0.36225082441206,100,74,0
75,-8.7232167140783,0.38415786718336,100,75,0
76,-8.8119304652359,0.4069818999208,100,76,0
77,-8.8992230947851,0.43073836424362,100,77,0
78,-8.985000548183,0.45544175826147,100,78,0
79,-9.0691649903191,0.48110555573264,100,79,0
80,-9.1516148044334,0.50774212298784,100,80,0
81,-9.232244595055,0.53536263371211,100,81,0
82,-9.3109451951156,0.5639769816915,100,82,0
83,-9.3876036774162,0.59359369164547,100,83,0
84,-9.4621033705631,0.62421982828225,100,84,0
85,-9.5343238795057,0.65586090372894,100,85,0
86,-9.6041411107758,0.68852078350567,100,86,0
87,-9.6714273025074,0.72220159123004,100,87,0
88,-9.7360510592979,0.75690361225469,100,88,0
89,-9.7978773919189,0.79262519646005,100,89,0
90,-9.8567677619205,0.82936266044201,100,90,0
91,-9.9125801310599,0.86711018935252,100,91,0
92,-9.9651690155119,0.90585973867197,100,92,0
93,-10.014385544763,0.9456009362088,100,93,0
94,-10.060077525058,0.9863209846444,100,94,0
95,-10.102089507219,1.028004564958,100,95,0
96,-10.140262858639,1.0706337410886,100,96,0
97,-10.174435839173,1.1141878662087,100,97,0
98,-10.204443680654,1.1586434910044,100,98,0
99,-10.230118669634,1.2039742743783,100,99,0
100,-10.251290233024,1.2501508970055,100,100,0
101,-10.26778502612,1.2971409781982,100,101,0
102,-10.279427022552,1.3449089965465,100,102,0
103,-10.286037605584,1.3934162148253,100,103,0
104,-10.287435660174,1.4426206096716,100,104,0
105,-10.283437665123,1.4924768065541,100,105,0
106,-10.2738577846,1.5429360205715,100,106,0
107,-10.258507958288,1.5939460036309,100,107,0
108,-10.237197989293,1.6454509985721,100,108,0
109,-10.209735629001,1.6973917008137,100,109,0
110,-10.175926657897,1.7497052281113,100,110,0
111,-10.135574961421,1.8023250990247,100,111,0
112,-10.088482599822,1.8551812207023,100,112,0
113,-10.03444987095,1.9081998865985,100,113,0
114,-9.9732753649072,1.9613037847408,100,114,0
115,-9.9047560094145,2.0144120171762,100,115,0
116,-9.8286871047566,2.0674401312206,100,116,0
117,-9.7448623471247,2.1203001631428,100,117,0
118,-9.6530738391753,2.17290069491,100,118,0
119,-9.5531120866311,2.2251469246225,100,119,0
120,-9.4447659797416,2.2769407512605,100,120,0
121,-9.3278227584522,2.3281808743605,100,121,0
122,-9.2020679601607,2.3787629092328,100,122,0
123,-9.0672853489868,2.4285795183224,100,123,0
124,-8.9232568255392,2.4775205593054,100,124,0
125,-8.7697623162537,2.5254732504999,100,125,0
126,-8.6065796414403,2.5723223541596,100,126,0
127,-8.4334843613633,2.6179503781979,100,127,0
128,-8.2502495997282,2.6622377968768,100,128,0
129,-8.0566458441751,2.7050632909725,100,129,0
130,-7.852440723539,2.7463040079074,100,130,0
131,-7.6373987618524,2.7858358423158,100,131,0
132,-7.4112811093079,2.8235337374804,100,132,0
133,-7.1738452506676,2.8592720080464,100,133,0
134,-6.9248446919104,2.8929246843891,100,134,0
135,-6.6640286262194,2.9243658789674,100,135,0
136,-6.3911415808443,2.9534701749577,100,136,0
137,-6.1059230466905,2.9801130374108,100,137,0
138,-5.8081070929959,3.0041712471223,100,138,0
139,-5.4974219699077,3.0255233573437,100,139,0
140,-5.1735897022963,3.0440501733929,100,140,0
141,-4.8363256786993,3.0596352551421,100,141,0
142,-4.4853382398856,3.0721654422713,100,142,0
143,-4.1203282721699,3.0815314020731,100,143,0
144,-3.7409888112509,3.0876281994753,100,144,0
145,-3.3470046631256,3.0903558888185,100,145,0
146,-2.9380520492765,3.0896201267697,100,146,0
147,-2.5137982841736,3.0853328055841,100,147,0
148,-2.0739014938951,3.0774127057329,100,148,0
149,-1.6180103854904,3.0657861666918,100,149,0
150,-1.1457640775387,3.0503877744434,100,150,0
151,-0.65679200318037,3.0311610639623,100,151,0
152,-0.15071389773114,3.0080592346469,100,152,0
153,0.37286011623592,2.9810458763135,100,153,0
154,0.91432933261446,2.9500957029849,100,154,0
155,1.4741021399335,2.9151952912836,100,155,0
156,2.0525955588832,2.8763438197744,100,156,0
157,2.650234623564,2.8335538050922,100,157,0
158,3.2674515903572,2.7868518301389,100,158,0
159,3.9046849579833,2.736279259038,100,159,0
160,4.5623782821472,2.6818929328903,100,160,0
161,5.2409787681826,2.6237658396957,100,161,0
162,5.9409356253842,2.5619877510768,100,162,0
163,6.6626981671464,2.4966658176833,100,163,0
164,7.4067136419165,2.4279251143602,100,164,0
165,8.1734247809997,2.3559091253497,100,165,0
166,8.9632670508569,2.2807801589585,100,166,0
167,9.7766655993154,2.2027196802855,100,167,0
168,10.614031887513,2.1219285497681,100,168,0
169,11.475760002322,2.0386271544931,100,169,0
170,12.362222647136,1.9530554184388,100,170,0
171,13.273766813068,1.8654726770937,100,171,0
172,14.210709136827,1.7761574012485,100,172,0
173,15.173330956909,1.6854067542096,100,173,0
174,16.161873085154,1.5935359662569,100,174,0
175,17.176530317366,1.5008775098858,100,175,0
176,18.217445713406,1.4077800592736,100,176,0
177,19.284704684877,1.314607217503,100,177,0
178,20.378328936754,1.2217359954067,100,178,0
179,21.498270317832,1.1295550264716,100,179,0
180,22.644404644368,1.0384625031072,100,180,0
181,23.816525570633,0.94886382074131,100,181,0
182,25.014338590391,0.86116891768529,100,182,0
183,26.237455263227,0.77578930052495,100,183,0
184,27.485387770282,0.69313474694091,100,184,0
185,28.75754391401,0.61360968034926,100,185,0
186,30.053222686811,0.53760921356584,100,186,0
187,31.371610543257,0.46551486181802,100,187,0
188,32.711778519679,0.39768992882149,100,188,0
189,34.072680353727,0.33447457326697,100,189,0
190,35.45315176392,0.27618056686233,100,190,0
191,36.851911056109,0.2230857589851,100,191,0
192,38.267561228893,0.17542826691751,100,192,0
193,39.6985937543,0.13340041459476,100,193,0
194,41.143394212246,0.097142445486898,100,194,0
195,42.600249958231,0.066736048238618,100,195,0
196,44.067360004544,0.042197642525816,100,196,0
197,45.542847273263,0.023472294448679,100,197,0
198,47.024773567746,0.010420156445767,100,198,0
199,48.511155699229,0.0028748887599366,100,199,0
200,50,0,100,200,0
